Name: Striatum[D2], Title: Membrane potential
0.1 -60.0995016625
0.2 -60.1980132669
0.3 -60.2955446645
0.4 -60.3921056085
0.5 -60.487705755
0.6 -60.5823546642
0.7 -60.6760618009
0.8 -60.7688365361
0.9 -60.8606881473
1.0 -60.9516258196
1.1 -61.041658647
1.2 -61.1307956328
1.3 -61.2190456908
1.4 -61.306417646
1.5 -61.3929202357
1.6 -61.4785621103
1.7 -61.563351834
1.8 -61.6472978859
1.9 -61.7304086606
2.0 -61.8126924692
2.1 -61.8941575403
2.2 -61.9748120204
2.3 -62.054663975
2.4 -62.1337213893
2.5 -62.2119921693
2.6 -62.289484142
2.7 -62.3662050566
2.8 -62.4421625854
2.9 -62.5173643242
3.0 -62.5918177932
3.1 -62.6655304378
3.2 -62.7385096293
3.3 -62.8107626657
3.4 -62.8822967724
3.5 -62.9531191028
3.6 -63.0232367393
3.7 -63.0926566936
3.8 -63.1613859079
3.9 -63.229431255
4.0 -63.2967995396
4.1 -63.3634974986
4.2 -63.4295318018
4.3 -63.4949090528
4.4 -63.5596357892
4.5 -63.6237184838
4.6 -63.6871635449
4.7 -63.7499773172
4.8 -63.8121660819
4.9 -63.8737360582
5.0 -63.9346934029
5.1 -63.9950442119
5.2 -64.0547945203
5.3 -64.1139503032
5.4 -64.1725174763
5.5 -64.2305018962
5.6 -64.2879093615
5.7 -64.344745613
5.8 -64.4010163343
5.9 -64.4567271527
6.0 -64.5118836391
6.1 -64.5664913093
6.2 -64.6205556241
6.3 -64.6740819899
6.4 -64.7270757596
6.5 -64.7795422324
6.6 -64.8314866551
6.7 -64.8829142221
6.8 -64.9338300763
6.9 -64.9842393093
7.0 -65.0341469621
7.1 -65.0835580254
7.2 -65.1324774404
7.3 -65.1809100991
7.4 -65.2288608448
7.5 -65.2763344726
7.6 -65.3233357299
7.7 -65.3698693169
7.8 -65.4159398869
7.9 -65.4615520472
8.0 -65.5067103588
8.1 -65.5514193378
8.2 -65.5956834549
8.3 -65.6395071368
8.4 -65.6828947657
8.5 -65.7258506805
8.6 -65.7683791768
8.7 -65.8104845075
8.8 -65.8521708832
8.9 -65.8934424725
9.0 -65.9343034026
9.1 -65.9747577597
9.2 -66.0148095892
9.3 -66.0544628963
9.4 -66.0937216464
9.5 -66.1325897655
9.6 -66.1710711402
9.7 -66.209169619
9.8 -66.2468890115
9.9 -66.2842330898
10.0 -66.3212055883
10.1 -66.3578102043
10.2 -66.3940505983
10.3 -66.4299303943
10.4 -66.4654531804
10.5 -66.5006225089
10.6 -66.5354418967
10.7 -66.5699148258
10.8 -66.6040447436
10.9 -66.6378350629
11.0 -66.671289163
11.1 -66.7044103892
11.2 -66.7372020538
11.3 -66.7696674358
11.4 -66.8018097818
11.5 -66.8336323062
11.6 -66.8651381912
11.7 -66.8963305873
11.8 -66.927212614
11.9 -66.9577873593
12.0 -66.9880578809
12.1 -67.0180272057
12.2 -67.0476983308
12.3 -67.0770742232
12.4 -67.1061578206
12.5 -67.1349520314
12.6 -67.163459735
12.7 -67.1916837822
12.8 -67.2196269955
12.9 -67.2401911345
13.0 -67.2612264096
13.1 -67.2755627921
13.2 -67.2909855376
13.3 -67.3002658459
13.4 -67.2969337273
13.5 -67.2965081907
13.6 -67.2915858376
13.7 -67.2826397438
13.8 -67.2629964818
13.9 -67.2337889315
14.0 -67.1960410213
14.1 -67.1435770733
14.2 -67.0779796738
14.3 -67.000678993
14.4 -66.9058662735
14.5 -66.7883544139
14.6 -66.6506191598
14.7 -66.5019985525
14.8 -66.2798578887
14.9 -66.0488740674
15.0 -65.8101869582
15.1 -65.5364208513
15.2 -65.2456910747
15.3 -64.9187368469
15.4 -64.5596411069
15.5 -64.1862939941
15.6 -63.7792304274
15.7 -63.3636510562
15.8 -62.9337354071
15.9 -62.5055859803
16.0 -62.0723231686
16.1 -61.6206877925
16.2 -61.1388192227
16.3 -60.6516261033
16.4 -60.1459223165
16.5 -59.6383169538
16.6 -59.1223877031
16.7 -58.5923891195
16.8 -58.0715916982
16.9 -57.5027218495
17.0 -56.8771236635
17.1 -56.265207977
17.2 -55.6590279187
17.3 -55.0443579447
17.4 -54.3800582273
17.5 -53.714533714
17.6 -53.0485421609
17.7 -52.3685607647
17.8 -51.6695896181
17.9 -50.9613696838
18.0 -50.2242318675
18.1 -67.0
18.2 -67.0
18.3 -67.0
18.4 -67.0
18.5 -67.0
18.6 -67.0
18.7 -67.0
18.8 -67.0
18.9 -67.0
19.0 -67.0
19.1 -67.0
19.2 -67.0
19.3 -67.0
19.4 -67.0
19.5 -67.0
19.6 -67.0
19.7 -67.0
19.8 -67.0
19.9 -67.0
20.0 -67.0
20.1 -67.0
20.2 -66.9000784797
20.3 -66.9851707331
20.4 -67.0749780891
20.5 -67.1762568998
20.6 -67.6613844393
20.7 -68.4837580841
20.8 -69.5073643956
20.9 -70.5782120814
21.0 -71.7915086121
21.1 -73.3347853647
21.2 -75.135926131
21.3 -77.0352112979
21.4 -78.9145730311
21.5 -80.6012308652
21.6 -82.1376315625
21.7 -83.4841523971
21.8 -80.9100479533
21.9 -78.6177548898
22.0 -75.2489564712
22.1 -72.2224805587
22.2 -69.5027108299
22.3 -67.0505540425
22.4 -64.8664306214
22.5 -62.9222352323
22.6 -61.1998272325
22.7 -59.6757959754
22.8 -58.3362230352
22.9 -57.1685954141
23.0 -56.1474594886
23.1 -55.2641884697
23.2 -54.5039265676
23.3 -53.8533454127
23.4 -53.3004905863
23.5 -52.8346433429
23.6 -52.4461960352
23.7 -52.1265398989
23.8 -51.8679639844
23.9 -51.6635641406
24.0 -51.507161063
24.1 -51.3932265145
24.2 -51.3168169131
24.3 -51.2735135623
24.4 -51.2593688663
24.5 -51.270857941
24.6 -51.3048350866
24.7 -51.3584946395
24.8 -51.4293357714
24.9 -51.5151308429
25.0 -51.613896958
25.1 -51.7238704029
25.2 -51.8434836797
25.3 -51.9713448779
25.4 -52.1062191501
25.5 -52.2470120796
25.6 -52.3927547536
25.7 -52.5411798585
25.8 -52.6930894547
25.9 -52.7727679818
26.0 -52.8625357487
26.1 -52.961106374
26.2 -52.3076690719
26.3 -51.7407076637
26.4 -51.2516311087
26.5 -50.8326782067
26.6 -50.4768378762
26.7 -50.1755174507
26.8 -67.0
26.9 -67.0
27.0 -67.0
27.1 -67.0
27.2 -67.0
27.3 -67.0
27.4 -67.0
27.5 -67.0
27.6 -67.0
27.7 -67.0
27.8 -67.0
27.9 -67.0
28.0 -67.0
28.1 -67.0
28.2 -67.0
28.3 -67.0
28.4 -67.0
28.5 -67.0
28.6 -67.0
28.7 -67.0
28.8 -67.0
28.9 -66.9205105725
29.0 -66.8524348142
29.1 -66.7946325043
29.2 -66.7460736086
29.3 -66.7058276937
29.4 -66.3882928303
29.5 -66.1074035858
29.6 -65.8595978815
29.7 -65.6416541436
29.8 -65.4506588279
29.9 -65.2839770395
30.0 -65.1392259534
30.1 -65.0142507681
30.2 -64.907102952
30.3 -64.8160205629
30.4 -64.7394104437
30.5 -64.6758321164
30.6 -64.6239832102
30.7 -64.5826862806
30.8 -64.5508768837
30.9 -64.527592789
31.0 -64.51196422
31.1 -64.5032050261
31.2 -64.500604696
31.3 -64.5035211333
31.4 -64.5113741207
31.5 -64.5236394079
31.6 -64.5398433638
31.7 -64.559558138
31.8 -64.5823972852
31.9 -64.6080118058
32.0 -64.6360865653
32.1 -64.6663370549
32.2 -64.6985064614
32.3 -64.7323630169
32.4 -64.7676976011
32.5 -64.804321573
32.6 -64.8420648091
32.7 -64.8807739295
32.8 -64.9203106928
32.9 -64.9605505447
33.0 -65.0013813051
33.1 -65.0427019803
33.2 -65.0844216896
33.3 -65.1264586932
33.4 -65.1687395139
33.5 -65.2111981427
33.6 -65.2537753197
33.7 -65.2964178844
33.8 -65.3390781879
33.9 -65.3817135611
34.0 -65.4242858342
34.1 -65.4667609018
34.2 -65.5091083298
34.3 -65.5513009997
34.4 -65.5933147873
34.5 -65.635128272
34.6 -65.6767224739
34.7 -65.7180806159
34.8 -65.759187909
34.9 -65.8000313581
35.0 -65.840599586
35.1 -65.8808826748
35.2 -65.9208720222
35.3 -65.9605602118
35.4 -65.9999408957
35.5 -66.0390086883
35.6 -66.0777590707
35.7 -66.1161883038
35.8 -66.15429335
35.9 -66.1920718027
36.0 -66.2295218219
36.1 -66.2666420767
36.2 -66.303431693
36.3 -66.3398902063
36.4 -66.3760175192
36.5 -66.4118138626
36.6 -66.4472797611
36.7 -66.4824160019
36.8 -66.5172236058
36.9 -66.551703802
37.0 -66.5858580052
37.1 -66.6196877939
37.2 -66.6531948926
37.3 -66.6863811542
37.4 -66.7192485446
37.5 -66.7517991293
37.6 -66.7840350605
37.7 -66.0527043331
37.8 -65.4012912236
37.9 -64.8220878357
38.0 -64.289164513
38.1 -63.8171613374
38.2 -63.4001794243
38.3 -63.032882254
38.4 -62.7104421455
38.5 -62.4284918239
38.6 -62.1830805972
38.7 -61.9706347033
38.8 -61.7879214306
38.9 -61.632016653
39.0 -61.500275455
39.1 -61.3903055515
39.2 -61.2999432374
39.3 -61.2272316264
39.4 -61.1704009605
39.5 -61.1278507929
39.6 -61.0981338674
39.7 -61.0799415311
39.8 -61.0720905363
39.9 -61.0735110975
40.0 -61.0832360856
40.1 -61.1003912503
40.2 -61.1241863731
40.3 -61.1539072624
40.4 -61.1889085101
40.5 -61.2286069382
40.6 -61.272475668
40.7 -61.3200387555
40.8 -61.3708663356
40.9 -61.4245702295
41.0 -61.4807999702
41.1 -61.5392392057
41.2 -61.5996024453
41.3 -61.6616321146
41.4 -61.7250958924
41.5 -61.7897842991
41.6 -61.8555085166
41.7 -61.9220984144
41.8 -61.9894007641
41.9 -62.057277624
42.0 -62.1256048774
42.1 -62.1942709097
42.2 -62.2631754122
42.3 -62.3322282991
42.4 -62.4013487281
42.5 -62.470464214
42.6 -62.5395098267
42.7 -62.6084274659
42.8 -62.6771652045
42.9 -62.745676695
43.0 -62.8139206318
43.1 -62.8818602654
43.2 -62.9494629624
43.3 -63.0166998081
43.4 -63.0835452456
43.5 -63.1499767514
43.6 -63.2159745396
43.7 -63.2815212965
43.8 -63.3466019387
43.9 -63.4112033954
44.0 -63.4753144112
44.1 -63.5389253673
44.2 -63.6020281205
44.3 -63.6646158572
44.4 -63.726682961
44.5 -63.7882248936
44.6 -63.8492380867
44.7 -63.9097198445
44.8 -63.9696682551
44.9 -64.0290821107
45.0 -64.0879608357
45.1 -64.146304421
45.2 -64.1500022953
45.3 -64.1588542447
45.4 -64.1723150087
45.5 -64.1898917604
45.6 -64.211139111
45.7 -64.2356545906
45.8 -64.2630745585
45.9 -64.2930705024
46.0 -64.325345691
46.1 -64.3596321438
46.2 -64.3956878904
46.3 -64.4332944903
46.4 -64.4722547882
46.5 -64.5123908843
46.6 -64.5535422962
46.7 -64.595564297
46.8 -64.6383264112
46.9 -64.6817110534
47.0 -64.7256122972
47.1 -64.7698645616
47.2 -64.8144595798
47.3 -64.8593194223
47.4 -64.9043740265
47.5 -64.9495604432
47.6 -64.994822156
47.7 -65.0401084638
47.8 -65.0853739238
47.9 -65.1305778467
48.0 -65.1756838395
48.1 -65.2206593931
48.2 -65.2654755082
48.3 -65.3101063572
48.4 -65.3545289783
48.5 -65.3987229986
48.6 -65.4426703841
48.7 -65.4863552124
48.8 -65.5297634688
48.9 -65.5728828599
49.0 -65.6157026467
49.1 -65.6582134922
49.2 -65.7004073249
49.3 -65.742277214
49.4 -65.7838172574
49.5 -65.8250224803
49.6 -65.8658887429
49.7 -65.5484566698
49.8 -65.2683052762
49.9 -65.0218164584
50.0 -64.8057171215
50.1 -64.6170463397
50.2 -64.4531256431
50.3 -64.3115321315
50.4 -64.1900741469
50.5 -64.0867692613
50.6 -63.9998243592
50.7 -63.8308912266
50.8 -63.6853965872
50.9 -63.5610367166
51.0 -63.4557278476
51.1 -63.3675852314
51.2 -63.2949041913
51.3 -63.2361429792
51.4 -63.1899072643
51.5 -63.1549360972
51.6 -62.9581639201
51.7 -62.7858167581
51.8 -62.6382532785
51.9 -62.5130315929
52.0 -62.4079430194
52.1 -62.3209898816
52.2 -62.2503654206
52.3 -62.1944356189
52.4 -62.1517227536
52.5 -62.1208905152
52.6 -62.0543972085
52.7 -62.0023537949
52.8 -61.9633043677
52.9 -61.9359323726
53.0 -60.6240066196
53.1 -59.4576167206
53.2 -58.4124936457
53.3 -57.4872087383
53.4 -56.6701550891
53.5 -55.9508323501
53.6 -55.0875880392
53.7 -54.3283846353
53.8 -53.6631035047
53.9 -53.0813808068
54.0 -52.5762737184
54.1 -51.9857183105
54.2 -51.4737360436
54.3 -51.0326270661
54.4 -50.6554264794
54.5 -50.3358343757
54.6 -50.068152534
54.7 -67.0
54.8 -67.0
54.9 -67.0
55.0 -67.0
55.1 -67.0
55.2 -67.0
55.3 -67.0
55.4 -67.0
55.5 -67.0
55.6 -67.0
55.7 -67.0
55.8 -67.0
55.9 -67.0
56.0 -67.0
56.1 -67.0
56.2 -67.0
56.3 -67.0
56.4 -67.0
56.5 -67.0
56.6 -67.0
56.7 -67.0
56.8 -66.5252382963
56.9 -66.1008754619
57.0 -65.0813458593
57.1 -63.8461535815
57.2 -62.6022162763
57.3 -61.4947640025
57.4 -59.8572171019
57.5 -58.1724010232
57.6 -56.6742846266
57.7 -55.3448387201
57.8 -53.2571724598
57.9 -51.402823268
58.0 -67.0
58.1 -67.0
58.2 -67.0
58.3 -67.0
58.4 -67.0
58.5 -67.0
58.6 -67.0
58.7 -67.0
58.8 -67.0
58.9 -67.0
59.0 -67.0
59.1 -67.0
59.2 -67.0
59.3 -67.0
59.4 -67.0
59.5 -67.0
59.6 -67.0
59.7 -67.0
59.8 -67.0
59.9 -67.0
60.0 -67.0
60.1 -65.8511638229
60.2 -64.8259256242
60.3 -63.9123814947
60.4 -63.099761745
60.5 -62.3783229561
60.6 -61.7392503027
60.7 -61.1745691725
60.8 -60.6770651955
60.9 -60.2402118837
61.0 -59.8581051573
61.1 -59.5254041015
61.2 -59.237277361
61.3 -58.9893546361
61.4 -58.7776827948
61.5 -58.5986861611
61.6 -58.4491305825
61.7 -58.3260909179
61.8 -58.2269216184
61.9 -58.1492301085
62.0 -58.0908527005
62.1 -58.0498328009
62.2 -58.0244011909
62.3 -58.0129581836
62.4 -58.0140574793
62.5 -58.0263915573
62.6 -58.0487784578
62.7 -58.080149822
62.8 -58.1195400705
62.9 -58.1660766114
63.0 -58.2189709802
63.1 -58.2775108234
63.2 -58.341052645
63.3 -58.4090152428
63.4 -58.4808737701
63.5 -58.5561543626
63.6 -58.6344292757
63.7 -58.7153124864
63.8 -58.798455712
63.9 -58.8835448092
64.0 -58.9702965152
64.1 -59.058455499
64.2 -59.1477916942
64.3 -59.2380978844
64.4 -59.3291875199
64.5 -59.4208927412
64.6 -59.513062591
64.7 -59.6055613968
64.8 -59.6982673071
64.9 -59.7910709668
65.0 -59.8838743197
65.1 -59.9765895237
65.2 -60.0691379704
65.3 -60.1614493976
65.4 -60.2534610865
65.5 -60.3451171353
65.6 -60.4363678019
65.7 -60.5271689096
65.8 -60.6174813089
65.9 -60.7072703913
66.0 -60.7965056487
66.1 -60.8851602754
66.2 -60.9732108077
66.3 -61.060636798
66.4 -61.1474205201
66.5 -61.2335467023
66.6 -61.3190022863
66.7 -61.4037762091
66.8 -61.4878592054
66.9 -61.5712436296
67.0 -61.6539232935
67.1 -61.7358933211
67.2 -61.8171500163
67.3 -61.8976907433
67.4 -61.9775138189
67.5 -62.0566184147
67.6 -62.1350044688
67.7 -62.2126726065
67.8 -62.2896240674
67.9 -62.3658606406
68.0 -62.4413846059
68.1 -62.5161986804
68.2 -62.5903059702
68.3 -62.6637099271
68.4 -62.7364143095
68.5 -62.8084231466
68.6 -62.8797407065
68.7 -62.9503714671
68.8 -63.0203200906
68.9 -63.089591399
69.0 -63.1581903536
69.1 -63.2261220356
69.2 -63.2933916285
69.3 -63.3600044029
69.4 -63.4259657025
69.5 -63.491280931
69.6 -63.5559555409
69.7 -63.6199950237
69.8 -63.6834048998
69.9 -63.7461907111
70.0 -63.808358013
70.1 -63.8699123679
70.2 -63.930859339
70.3 -63.9912044854
70.4 -64.0509533569
70.5 -64.1101114897
70.6 -64.1686844027
70.7 -64.2266775942
70.8 -64.2840965385
70.9 -64.3409466836
71.0 -64.3972334485
71.1 -64.452962221
71.2 -64.5081383565
71.3 -64.5627671752
71.4 -64.616853962
71.5 -64.6704039641
71.6 -64.7234223905
71.7 -64.775914411
71.8 -64.8278851553
71.9 -64.8793397123
72.0 -64.9302831297
72.1 -64.9807204133
72.2 -65.0306565268
72.3 -65.0800963911
72.4 -65.1290448849
72.5 -65.1775068436
72.6 -65.2254870597
72.7 -65.2729902826
72.8 -65.3200212189
72.9 -65.3665845317
73.0 -65.4126848415
73.1 -65.4583267258
73.2 -65.1113525196
73.3 -64.8051501613
73.4 -64.535762554
73.5 -64.2996099362
73.6 -64.0934539654
73.7 -63.9143652206
73.8 -63.7596937969
73.9 -63.627042699
74.0 -63.5142437655
74.1 -63.4193358861
74.2 -63.3405452904
74.3 -63.276267713
74.4 -63.2250522564
74.5 -63.1855867883
74.6 -63.1566847304
74.7 -63.1372731027
74.8 -63.126381707
74.9 -63.1231333387
75.0 -63.1267349312
75.1 -63.136469542
75.2 -63.1516891025
75.3 -63.171807857
75.4 -63.1962964266
75.5 -63.2246764379
75.6 -63.256515663
75.7 -63.2914236217
75.8 -63.3290476031
75.9 -63.3690690648
76.0 -63.4112003755
76.1 -63.4551818675
76.2 -63.5007791697
76.3 -63.5477807946
76.4 -63.5959959545
76.5 -63.6452525865
76.6 -63.6953955643
76.7 -63.7462850815
76.8 -63.7977951877
76.9 -63.8498124645
77.0 -63.902234828
77.1 -63.9549704439
77.2 -64.0079367476
77.3 -64.0610595563
77.4 -64.1142722665
77.5 -64.1675151273
77.6 -64.2207345833
77.7 -64.2738826797
77.8 -64.3269165247
77.9 -64.3797978027
78.0 -64.4324923333
78.1 -64.4849696739
78.2 -64.5372027581
78.3 -64.5891675707
78.4 -64.6408428515
78.5 -64.6922098297
78.6 -64.7432519811
78.7 -64.7939548107
78.8 -64.8443056545
78.9 -64.8942935012
79.0 -64.9439088298
79.1 -64.9931434642
79.2 -65.0419904403
79.3 -65.0904438863
79.4 -65.138498915
79.5 -65.1861515253
79.6 -65.233398514
79.7 -65.2802373955
79.8 -65.3266663299
79.9 -65.3726840568
80.0 -65.4182898365
80.1 -65.4634833966
80.2 -65.5082648832
80.3 -65.5526348174
80.4 -65.5965940558
80.5 -65.6401437546
80.6 -65.6832853374
80.7 -65.7260204658
80.8 -65.7683510134
80.9 -65.8102790415
81.0 -65.851806778
81.1 -65.8929365977
81.2 -65.9336710048
81.3 -65.9740126171
81.4 -66.0139641514
81.5 -66.0535284113
81.6 -66.0927082747
81.7 -66.1315066839
81.8 -66.1699266357
81.9 -66.2079711734
82.0 -66.2456433785
82.1 -66.2829463641
82.2 -66.3198832688
82.3 -66.3564572507
82.4 -66.3926714827
82.5 -66.4285291479
82.6 -66.4640334351
82.7 -66.4991875361
82.8 -66.5339946413
82.9 -66.5684579376
83.0 -66.6025806055
83.1 -66.6363658165
83.2 -66.6698167316
83.3 -66.7029364989
83.4 -66.7357282519
83.5 -66.7681951088
83.6 -66.8003401702
83.7 -66.8321665187
83.8 -66.8636772173
83.9 -66.8948753091
84.0 -66.925763816
84.1 -66.9563457385
84.2 -66.7555046234
84.3 -66.5786564559
84.4 -66.4234694446
84.5 -66.2878341802
84.6 -66.1698424691
84.7 -66.0677681796
84.8 -65.9800499122
84.9 -65.9052753184
85.0 -65.8421669121
85.1 -65.7895692311
85.2 -65.7464372206
85.3 -65.7118257216
85.4 -65.6848799609
85.5 -65.6648269447
85.6 -65.6509676721
85.7 -65.6426700897
85.8 -65.6393627159
85.9 -65.6405288731
86.0 -65.6457014679
86.1 -65.6544582684
86.2 -65.666417631
86.3 -65.6812346339
86.4 -65.6985975786
86.5 -65.7182248242
86.6 -65.7398619231
86.7 -65.7632790294
86.8 -65.7882685538
86.9 -65.8146430418
87.0 -65.842233254
87.1 -65.8708864287
87.2 -65.9004647101
87.3 -65.9308437267
87.4 -65.9619113038
87.5 -65.9935662994
87.6 -66.025717551
87.7 -65.5013101406
87.8 -65.0357878168
87.9 -64.623457559
88.0 -64.2591689985
88.1 -63.9382627691
88.2 -63.6565237736
88.3 -63.4101388973
88.4 -63.1956587455
88.5 -63.0099630226
88.6 -62.8502292061
88.7 -62.7139042008
88.8 -62.5986786915
88.9 -62.5024639361
89.0 -62.4233707672
89.1 -62.3596905919
89.2 -62.0945971795
89.3 -61.8646029471
89.4 -61.6662695362
89.5 -61.3542700316
89.6 -61.0829567244
89.7 -60.8483484036
89.8 -60.6468438095
89.9 -60.475185465
90.0 -60.3304269502
90.1 -60.2099032906
90.2 -60.1112041634
90.3 -60.0321496538
90.4 -59.9505012689
90.5 -59.5778252317
90.6 -59.2191471016
90.7 -58.908039201
90.8 -58.6398409186
90.9 -58.4103364895
91.0 -58.1308601658
91.1 -57.8917344278
91.2 -57.6889825461
91.3 -57.5190075888
91.4 -57.378556266
91.5 -56.7333339748
91.6 -56.1678838089
91.7 -55.6744316512
91.8 -55.2459450086
91.9 -54.8760624191
92.0 -54.5590295764
92.1 -54.2896415343
92.2 -54.0631904099
92.3 -53.8754180649
92.4 -53.7224732894
92.5 -53.6008730603
92.6 -53.2626271936
92.7 -52.9437317721
92.8 -52.6742046671
92.9 -52.449158596
93.0 -52.2641732459
93.1 -52.1152508166
93.2 -51.37344505
93.3 -50.7265473003
93.4 -50.1652839287
93.5 -67.0
93.6 -67.0
93.7 -67.0
93.8 -67.0
93.9 -67.0
94.0 -67.0
94.1 -67.0
94.2 -67.0
94.3 -67.0
94.4 -67.0
94.5 -67.0
94.6 -67.0
94.7 -67.0
94.8 -67.0
94.9 -67.0
95.0 -67.0
95.1 -67.0
95.2 -67.0
95.3 -67.0
95.4 -67.0
95.5 -67.0
95.6 -65.177690051
95.7 -63.5497687593
95.8 -62.0975289143
95.9 -60.804045608
96.0 -59.6540066064
96.1 -58.6335588624
96.2 -57.6556025411
96.3 -56.7912045921
96.4 -55.2351343356
96.5 -53.8551340907
96.6 -52.634170072
96.7 -51.556832244
96.8 -50.6091797739
96.9 -67.0
97.0 -67.0
97.1 -67.0
97.2 -67.0
97.3 -67.0
97.4 -67.0
97.5 -67.0
97.6 -67.0
97.7 -67.0
97.8 -67.0
97.9 -67.0
98.0 -67.0
98.1 -67.0
98.2 -67.0
98.3 -67.0
98.4 -67.0
98.5 -67.0
98.6 -67.0
98.7 -67.0
98.8 -67.0
98.9 -67.0
99.0 -66.8272703268
99.1 -66.6755373948
99.2 -66.5427577338
99.3 -66.4270827866
99.4 -66.3268403567
99.5 -66.2405178205
99.6 -66.1667469376
99.7 -66.1042901066
99.8 -66.0520279289
99.9 -66.0089479558
100.0 -65.9741345067
100.1 -65.9467594563
100.2 -65.9260738984
100.3 -65.9114006029
100.4 -65.9021271913
100.5 -65.8976999608
100.6 -65.8976182969
100.7 -65.9014296171
100.8 -65.9087247966
100.9 -65.9191340285
101.0 -65.9323230784
101.1 -65.9479898957
101.2 -65.9658615471
101.3 -65.9856914416
101.4 -66.0072568205
101.5 -66.0303564858
101.6 -66.0548087445
101.7 -66.0804495491
101.8 -66.1071308147
101.9 -66.1347188969
102.0 -66.1630932137
102.1 -66.1921449989
102.2 -66.2217761749
102.3 -66.2518983317
102.4 -66.2824318037
102.5 -66.3133048342
102.6 -66.3444528196
102.7 -66.3758176255
102.8 -66.4073469679
102.9 -66.4389938529
103.0 -66.4707160708
103.1 -66.5024757372
103.2 -66.5342388786
103.3 -66.5659750569
103.4 -66.5976570304
103.5 -66.6292604461
103.6 -66.6607635625
103.7 -66.6921469974
103.8 -66.7233935011
103.9 -66.7544877504
104.0 -66.7854161624
104.1 -66.8161667261
104.2 -66.8467288499
104.3 -66.8770932241
104.4 -66.907251696
104.5 -66.9371971569
104.6 -66.9669234405
104.7 -66.9964252303
104.8 -67.025697976
104.9 -67.0547378185
105.0 -67.0835415208
105.1 -67.112106407
105.2 -67.1404303059
105.3 -67.1685115009
105.4 -67.1963486836
105.5 -67.2239409133
105.6 -67.2512875792
105.7 -67.2783883664
105.8 -67.3052432259
105.9 -67.3318523464
106.0 -67.35821613
106.1 -67.3843351688
