Name: VTA[DA0], Title: Membrane potential
0.1 -60.0995016625
0.2 -60.1980132669
0.3 -60.2955446645
0.4 -60.3921056085
0.5 -60.487705755
0.6 -60.5823546642
0.7 -60.6760618009
0.8 -60.7688365361
0.9 -60.8606881473
1.0 -60.9516258196
1.1 -61.041658647
1.2 -61.1307956328
1.3 -61.2190456908
1.4 -61.306417646
1.5 -61.3929202357
1.6 -61.4785621103
1.7 -61.563351834
1.8 -61.6472978859
1.9 -61.7304086606
2.0 -61.8126924692
2.1 -61.8941575403
2.2 -61.9748120204
2.3 -62.054663975
2.4 -62.1337213893
2.5 -62.2119921693
2.6 -62.289484142
2.7 -62.3662050566
2.8 -62.4421625854
2.9 -62.5173643242
3.0 -62.5918177932
3.1 -62.6655304378
3.2 -62.7385096293
3.3 -62.8107626657
3.4 -62.8822967724
3.5 -62.9531191028
3.6 -63.0232367393
3.7 -63.0926566936
3.8 -63.1613859079
3.9 -63.229431255
4.0 -63.2967995396
4.1 -63.3634974986
4.2 -63.4295318018
4.3 -63.4949090528
4.4 -63.5596357892
4.5 -63.6237184838
4.6 -63.6871635449
4.7 -63.7499773172
4.8 -63.8121660819
4.9 -63.8737360582
5.0 -63.9346934029
5.1 -63.9950442119
5.2 -64.0547945203
5.3 -64.1139503032
5.4 -64.1725174763
5.5 -64.2305018962
5.6 -64.2879093615
5.7 -64.344745613
5.8 -64.4010163343
5.9 -64.4567271527
6.0 -64.5118836391
6.1 -64.5664913093
6.2 -64.6205556241
6.3 -64.6740819899
6.4 -64.7270757596
6.5 -64.7795422324
6.6 -64.8314866551
6.7 -64.8829142221
6.8 -64.9338300763
6.9 -64.9842393093
7.0 -65.0341469621
7.1 -65.0835580254
7.2 -65.1324774404
7.3 -65.1809100991
7.4 -65.2288608448
7.5 -65.2763344726
7.6 -65.3233357299
7.7 -65.3698693169
7.8 -65.4159398869
7.9 -65.4615520472
8.0 -65.5067103588
8.1 -65.5514193378
8.2 -65.5956834549
8.3 -65.6395071368
8.4 -65.6828947657
8.5 -65.7258506805
8.6 -65.7683791768
8.7 -65.8104845075
8.8 -65.8521708832
8.9 -65.8934424725
9.0 -65.9343034026
9.1 -65.9747577597
9.2 -66.0148095892
9.3 -66.0544628963
9.4 -66.0937216464
9.5 -66.1325897655
9.6 -66.1710711402
9.7 -66.209169619
9.8 -66.2468890115
9.9 -66.2842330898
10.0 -66.3212055883
10.1 -66.3578102043
10.2 -66.3940505983
10.3 -66.4299303943
10.4 -66.4654531804
10.5 -66.5006225089
10.6 -66.5354418967
10.7 -66.5699148258
10.8 -66.6040447436
10.9 -66.6378350629
11.0 -66.671289163
11.1 -66.7044103892
11.2 -66.7372020538
11.3 -66.7696674358
11.4 -66.8018097818
11.5 -66.8336323062
11.6 -66.8651381912
11.7 -66.8963305873
11.8 -66.927212614
11.9 -66.9577873593
12.0 -66.9880578809
12.1 -67.0180272057
12.2 -67.0476983308
12.3 -67.0770742232
12.4 -67.1061578206
12.5 -67.1349520314
12.6 -67.163459735
12.7 -67.1916837822
12.8 -67.2196269955
12.9 -67.2472921691
13.0 -67.2746820697
13.1 -67.3017994362
13.2 -67.3286469803
13.3 -67.355227387
13.4 -67.3815433142
13.5 -67.4075973935
13.6 -67.4333922305
13.7 -67.4589304045
13.8 -67.4842144694
13.9 -67.5092469537
14.0 -67.5340303606
14.1 -67.5585671685
14.2 -67.582859831
14.3 -67.6069107776
14.4 -67.6307224132
14.5 -67.6542971191
14.6 -67.6776372527
14.7 -67.7007451481
14.8 -67.7236231162
14.9 -67.7462734446
15.0 -67.7686983985
15.1 -67.7909002204
15.2 -67.8128811305
15.3 -67.8346433268
15.4 -67.8561889857
15.5 -67.8775202617
15.6 -67.898639288
15.7 -67.9195481764
15.8 -67.940249018
15.9 -67.9607438827
16.0 -67.9810348201
16.1 -68.0011238592
16.2 -68.0210130092
16.3 -68.0407042587
16.4 -68.0601995771
16.5 -68.0795009138
16.6 -68.098610199
16.7 -68.1175293436
16.8 -68.1362602396
16.9 -68.1548047601
17.0 -68.1731647595
17.1 -68.1913420738
17.2 -68.2093385209
17.3 -68.2271559003
17.4 -68.2447959938
17.5 -68.2622605655
17.6 -68.2795513618
17.7 -68.2966701117
17.8 -68.3136185273
17.9 -68.3303983033
18.0 -68.3470111178
18.1 -68.363458632
18.2 -68.3797424907
18.3 -68.3958643222
18.4 -68.4118257389
18.5 -68.4276283369
18.6 -68.4432736963
18.7 -68.4587633818
18.8 -68.4740989424
18.9 -68.4892819116
19.0 -68.5043138078
19.1 -68.519196134
19.2 -68.5339303787
19.3 -68.5485180152
19.4 -68.5629605022
19.5 -68.5772592841
19.6 -68.5914157908
19.7 -68.6054314378
19.8 -68.6193076269
19.9 -68.6330457455
20.0 -68.6466471676
20.1 -68.6601132533
20.2 -68.6734453492
20.3 -68.6866447885
20.4 -68.6997128912
20.5 -68.7126509641
20.6 -68.7254603011
20.7 -68.7381421829
20.8 -68.750697878
20.9 -68.7631286418
21.0 -68.7754357175
21.1 -68.7876203357
21.2 -68.7996837149
21.3 -68.8116270615
21.4 -68.8234515698
21.5 -68.8351584223
21.6 -68.8467487896
21.7 -68.8582238309
21.8 -68.8695846936
21.9 -68.8808325138
22.0 -68.8919684164
22.1 -68.9029935148
22.2 -68.9139089118
22.3 -68.9247156986
22.4 -68.9354149562
22.5 -68.9460077544
22.6 -68.9564951525
22.7 -68.9668781992
22.8 -68.9771579328
22.9 -68.9873353815
23.0 -68.9974115628
23.1 -69.0073874844
23.2 -69.017264144
23.3 -69.0270425291
23.4 -69.0367236177
23.5 -69.0463083778
23.6 -69.055797768
23.7 -69.0651927372
23.8 -69.0744942249
23.9 -69.0837031612
24.0 -69.0928204671
24.1 -69.1018470543
24.2 -69.1107838254
24.3 -69.1196316742
24.4 -69.1283914854
24.5 -69.137064135
24.6 -69.1456504903
24.7 -69.15415141
24.8 -69.1625677441
24.9 -69.1709003342
25.0 -69.1791500138
25.1 -69.1873176076
25.2 -69.1954039325
25.3 -69.2034097971
25.4 -69.2113360021
25.5 -69.21918334
25.6 -69.2269525956
25.7 -69.2346445458
25.8 -69.2422599598
25.9 -69.2497995991
26.0 -69.2572642179
26.1 -69.2646545624
26.2 -69.2719713717
26.3 -69.2792153776
26.4 -69.2863873044
26.5 -69.2934878694
26.6 -69.3005177826
26.7 -69.3074777469
26.8 -69.3143684585
26.9 -69.3211906063
27.0 -69.3279448726
27.1 -69.3346319328
27.2 -69.3412524557
27.3 -69.3478071033
27.4 -69.3542965311
27.5 -69.3607213879
27.6 -69.3670823164
27.7 -69.3733799526
27.8 -69.3796149262
27.9 -69.3857878609
28.0 -69.3918993737
28.1 -69.3979500761
28.2 -69.4039405729
28.3 -69.4098714633
28.4 -69.4157433404
28.5 -69.4215567913
28.6 -69.4273123973
28.7 -69.4330107342
28.8 -69.4386523717
28.9 -69.4442378739
29.0 -69.4497677994
29.1 -69.4552427013
29.2 -69.460663127
29.3 -69.4660296185
29.4 -69.4713427126
29.5 -69.4766029405
29.6 -69.4818108283
29.7 -69.4869668967
29.8 -69.4920716614
29.9 -69.4971256328
30.0 -69.5021293163
30.1 -69.5070832124
30.2 -69.5119878164
30.3 -69.5168436187
30.4 -69.5216511051
30.5 -69.5264107561
30.6 -69.5311230478
30.7 -69.5357884514
30.8 -69.5404074335
30.9 -69.544980456
31.0 -69.5495079761
31.1 -69.5539904466
31.2 -69.5584283158
31.3 -69.5628220275
31.4 -69.567172021
31.5 -69.5714787313
31.6 -69.5757425892
31.7 -69.579964021
31.8 -69.5841434488
31.9 -69.5882812906
32.0 -69.5923779602
32.1 -69.5964338673
32.2 -69.6004494174
32.3 -69.6044250121
32.4 -69.608361049
32.5 -69.6122579217
32.6 -69.6161160198
32.7 -69.6199357292
32.8 -69.6237174319
32.9 -69.627461506
33.0 -69.631168326
33.1 -69.6348382625
33.2 -69.6384716825
33.3 -69.6420689493
33.4 -69.6456304228
33.5 -69.649156459
33.6 -69.6526474106
33.7 -69.6561036266
33.8 -69.6595254527
33.9 -69.662913231
34.0 -69.6662673004
34.1 -69.6695879962
34.2 -69.6728756506
34.3 -69.6761305923
34.4 -69.6793531467
34.5 -69.6825436362
34.6 -69.6857023798
34.7 -69.6888296934
34.8 -69.6919258897
34.9 -69.6949912783
35.0 -69.6980261658
35.1 -69.7010308556
35.2 -69.7040056483
35.3 -69.7069508413
35.4 -69.7098667292
35.5 -69.7127536035
35.6 -69.7156117529
35.7 -69.7184414632
35.8 -69.7212430174
35.9 -69.7240166958
36.0 -69.7267627755
36.1 -69.7294815313
36.2 -69.7321732351
36.3 -69.7348381559
36.4 -69.7374765603
36.5 -69.7400887122
36.6 -69.7426748727
36.7 -69.7452353005
36.8 -69.7477702516
36.9 -69.7502799796
37.0 -69.7527647353
37.1 -69.7552247673
37.2 -69.7576603215
37.3 -69.7600716416
37.4 -69.7624589687
37.5 -69.7648225414
37.6 -69.7671625963
37.7 -69.7694793671
37.8 -69.7717730857
37.9 -69.7740439815
38.0 -69.7762922814
38.1 -69.7785182104
38.2 -69.7807219911
38.3 -69.7829038437
38.4 -69.7850639865
38.5 -69.7872026356
38.6 -69.7893200048
38.7 -69.7914163057
38.8 -69.7934917482
38.9 -69.7955465396
39.0 -69.7975808855
39.1 -69.7995949894
39.2 -69.8015890526
39.3 -69.8035632745
39.4 -69.8055178525
39.5 -69.8074529822
39.6 -69.8093688571
39.7 -69.8112656686
39.8 -69.8131436066
39.9 -69.8150028588
40.0 -69.8168436111
40.1 -69.8186660476
40.2 -69.8204703506
40.3 -69.8222567005
40.4 -69.8240252758
40.5 -69.8257762536
40.6 -69.8275098088
40.7 -69.8292261149
40.8 -69.8309253435
40.9 -69.8326076644
41.0 -69.834273246
41.1 -69.8359222547
41.2 -69.8375548556
41.3 -69.8391712118
41.4 -69.840771485
41.5 -69.8423558352
41.6 -69.8439244208
41.7 -69.8454773988
41.8 -69.8470149243
41.9 -69.8485371513
42.0 -69.8500442318
42.1 -69.8515363166
42.2 -69.853013555
42.3 -69.8544760945
42.4 -69.8559240816
42.5 -69.8573576609
42.6 -69.8587769759
42.7 -69.8601821685
42.8 -69.8615733791
42.9 -69.862950747
43.0 -69.8643144099
43.1 -69.8656645041
43.2 -69.8670011646
43.3 -69.8683245251
43.4 -69.869634718
43.5 -69.8709318742
43.6 -69.8722161235
43.7 -69.8734875943
43.8 -69.8747464138
43.9 -69.8759927078
44.0 -69.877226601
44.1 -69.8784482167
44.2 -69.8796576772
44.3 -69.8808551033
44.4 -69.8820406148
44.5 -69.8832143303
44.6 -69.8843763671
44.7 -69.8855268415
44.8 -69.8866658685
44.9 -69.8877935619
45.0 -69.8889100346
45.1 -69.8900153982
45.2 -69.8911097633
45.3 -69.8921932393
45.4 -69.8932659345
45.5 -69.8943279562
45.6 -69.8953794106
45.7 -69.8964204028
45.8 -69.897451037
45.9 -69.8984714163
46.0 -69.8994816426
46.1 -69.9004818169
46.2 -69.9014720394
46.3 -69.902452409
46.4 -69.9034230237
46.5 -69.9043839807
46.6 -69.905335376
46.7 -69.9062773047
46.8 -69.9072098611
46.9 -69.9081331384
47.0 -69.909047229
47.1 -69.9099522242
47.2 -69.9108482145
47.3 -69.9117352896
47.4 -69.9126135381
47.5 -69.913483048
47.6 -69.914343906
47.7 -69.9151961984
47.8 -69.9160400103
47.9 -69.9168754262
48.0 -69.9177025295
48.1 -69.918521403
48.2 -69.9193321286
48.3 -69.9201347873
48.4 -69.9209294595
48.5 -69.9217162245
48.6 -69.9224951611
48.7 -69.9232663471
48.8 -69.9240298597
48.9 -69.9247857753
49.0 -69.9255341693
49.1 -69.9262751167
49.2 -69.9270086915
49.3 -69.9277349672
49.4 -69.9284540163
49.5 -69.9291659107
49.6 -69.9298707217
49.7 -69.9305685197
49.8 -69.9312593744
49.9 -69.9319433551
50.0 -69.93262053
50.1 -69.9332909669
50.2 -69.9339547329
50.3 -69.9346118943
50.4 -69.9352625168
50.5 -69.9359066655
50.6 -69.9365444049
50.7 -69.9371757986
50.8 -69.9378009098
50.9 -69.9384198011
51.0 -69.9390325343
51.1 -69.9396391708
51.2 -69.940239771
51.3 -69.9408343953
51.4 -69.9414231029
51.5 -69.9420059527
51.6 -69.9425830031
51.7 -69.9431543118
51.8 -69.9437199359
51.9 -69.9442799319
52.0 -69.9448343558
52.1 -69.9453832631
52.2 -69.9459267087
52.3 -69.946464747
52.4 -69.9469974316
52.5 -69.947524816
52.6 -69.9480469528
52.7 -69.9485638943
52.8 -69.9490756921
52.9 -69.9495823974
53.0 -69.9500840609
53.1 -69.9505807328
53.2 -69.9510724627
53.3 -69.9515592999
53.4 -69.9520412929
53.5 -69.95251849
53.6 -69.9529909389
53.7 -69.9534586869
53.8 -69.9539217807
53.9 -69.9543802666
54.0 -69.9548341906
54.1 -69.9552835979
54.2 -69.9557285335
54.3 -69.956169042
54.4 -69.9566051673
54.5 -69.9570369531
54.6 -69.9574644426
54.7 -69.9578876784
54.8 -69.958306703
54.9 -69.9587215583
55.0 -69.9591322856
55.1 -69.9595389262
55.2 -69.9599415206
55.3 -69.9603401091
55.4 -69.9607347316
55.5 -69.9611254276
55.6 -69.961512236
55.7 -69.9618951957
55.8 -69.9622743448
55.9 -69.9626497214
56.0 -69.9630213628
56.1 -69.9633893064
56.2 -69.9637535889
56.3 -69.9641142467
56.4 -69.9644713159
56.5 -69.9648248323
56.6 -69.965174831
56.7 -69.9655213472
56.8 -69.9658644156
56.9 -69.9662040703
57.0 -69.9665403454
57.1 -69.9668732746
57.2 -69.967202891
57.3 -69.9675292277
57.4 -69.9678523172
57.5 -69.968172192
57.6 -69.968488884
57.7 -69.9688024249
57.8 -69.9691128459
57.9 -69.9694201782
58.0 -69.9697244525
58.1 -69.9700256993
58.2 -69.9703239486
58.3 -69.9706192302
58.4 -69.9709115737
58.5 -69.9712010084
58.6 -69.9714875632
58.7 -69.9717712667
58.8 -69.9720521472
58.9 -69.972330233
59.0 -69.9726055518
59.1 -69.9728781311
59.2 -69.9731479982
59.3 -69.9734151801
59.4 -69.9736797035
59.5 -69.9739415948
59.6 -69.9742008803
59.7 -69.9744575858
59.8 -69.9747117371
59.9 -69.9749633595
60.0 -69.9752124782
60.1 -69.9754591182
60.2 -69.975703304
60.3 -69.9759450602
60.4 -69.9761844109
60.5 -69.9764213799
60.6 -69.9766559911
60.7 -69.9768882679
60.8 -69.9771182335
60.9 -69.9773459109
61.0 -69.9775713228
61.1 -69.9777944919
61.2 -69.9780154404
61.3 -69.9782341904
61.4 -69.9784507638
61.5 -69.9786651823
61.6 -69.9788774673
61.7 -69.97908764
61.8 -69.9792957215
61.9 -69.9795017325
62.0 -69.9797056936
62.1 -69.9799076254
62.2 -69.9801075478
62.3 -69.980305481
62.4 -69.9805014448
62.5 -69.9806954586
62.6 -69.980887542
62.7 -69.9810777142
62.8 -69.9812659941
62.9 -69.9814524005
63.0 -69.9816369522
63.1 -69.9818196676
63.2 -69.9820005649
63.3 -69.9821796623
63.4 -69.9823569776
63.5 -69.9825325286
63.6 -69.9827063329
63.7 -69.9828784077
63.8 -69.9830487704
63.9 -69.983217438
64.0 -69.9833844273
64.1 -69.983549755
64.2 -69.9837134377
64.3 -69.9838754917
64.4 -69.9840359332
64.5 -69.9841947783
64.6 -69.9843520429
64.7 -69.9845077427
64.8 -69.9846618932
64.9 -69.9848145099
65.0 -69.9849656081
65.1 -69.9851152028
65.2 -69.985263309
65.3 -69.9854099415
65.4 -69.985555115
65.5 -69.985698844
65.6 -69.9858411429
65.7 -69.9859820259
65.8 -69.9861215071
65.9 -69.9862596004
66.0 -69.9863963196
66.1 -69.9865316785
66.2 -69.9866656905
66.3 -69.9867983691
66.4 -69.9869297276
66.5 -69.9870597789
66.6 -69.9871885363
66.7 -69.9873160125
66.8 -69.9874422203
66.9 -69.9875671723
67.0 -69.987690881
67.1 -69.9878133588
67.2 -69.9879346179
67.3 -69.9880546704
67.4 -69.9881735284
67.5 -69.9882912038
67.6 -69.9884077083
67.7 -69.9885230535
67.8 -69.988637251
67.9 -69.9887503123
68.0 -69.9888622485
68.1 -69.988973071
68.2 -69.9890827908
68.3 -69.9891914188
68.4 -69.989298966
68.5 -69.9894054431
68.6 -69.9895108607
68.7 -69.9896152294
68.8 -69.9897185595
68.9 -69.9898208616
69.0 -69.9899221457
69.1 -69.990022422
69.2 -69.9901217006
69.3 -69.9902199913
69.4 -69.990317304
69.5 -69.9904136485
69.6 -69.9905090343
69.7 -69.9906034709
69.8 -69.990696968
69.9 -69.9907895347
70.0 -69.9908811803
70.1 -69.9909719141
70.2 -69.9910617451
70.3 -69.9911506822
70.4 -69.9912387344
70.5 -69.9913259104
70.6 -69.9914122191
70.7 -69.9914976689
70.8 -69.9915822685
70.9 -69.9916660263
71.0 -69.9917489508
71.1 -69.9918310501
71.2 -69.9919123325
71.3 -69.9919928061
71.4 -69.992072479
71.5 -69.9921513592
71.6 -69.9922294545
71.7 -69.9923067727
71.8 -69.9923833216
71.9 -69.9924591088
72.0 -69.9925341419
72.1 -69.9926084284
72.2 -69.9926819758
72.3 -69.9927547914
72.4 -69.9928268824
72.5 -69.9928982561
72.6 -69.9929689196
72.7 -69.9930388801
72.8 -69.9931081444
72.9 -69.9931767195
73.0 -69.9932446122
73.1 -69.9933118295
73.2 -69.9933783779
73.3 -69.9934442641
73.4 -69.9935094948
73.5 -69.9935740764
73.6 -69.9936380154
73.7 -69.9937013182
73.8 -69.9937639911
73.9 -69.9938260405
74.0 -69.9938874724
74.1 -69.9939482931
74.2 -69.9940085085
74.3 -69.9940681249
74.4 -69.994127148
74.5 -69.9941855839
74.6 -69.9942434383
74.7 -69.994300717
74.8 -69.9943574258
74.9 -69.9944135704
75.0 -69.9944691563
75.1 -69.9945241891
75.2 -69.9945786743
75.3 -69.9946326174
75.4 -69.9946860238
75.5 -69.9947388987
75.6 -69.9947912476
75.7 -69.9948430755
75.8 -69.9948943878
75.9 -69.9949451895
76.0 -69.9949954857
76.1 -69.9950452814
76.2 -69.9950945817
76.3 -69.9951433914
76.4 -69.9951917155
76.5 -69.9952395587
76.6 -69.9952869259
76.7 -69.9953338218
76.8 -69.995380251
76.9 -69.9954262183
77.0 -69.9954717282
77.1 -69.9955167852
77.2 -69.995561394
77.3 -69.9956055588
77.4 -69.9956492842
77.5 -69.9956925746
77.6 -69.9957354342
77.7 -69.9957778673
77.8 -69.9958198783
77.9 -69.9958614712
78.0 -69.9959026502
78.1 -69.9959434195
78.2 -69.9959837832
78.3 -69.9960237452
78.4 -69.9960633096
78.5 -69.9961024803
78.6 -69.9961412613
78.7 -69.9961796564
78.8 -69.9962176694
78.9 -69.9962553043
79.0 -69.9962925646
79.1 -69.9963294542
79.2 -69.9963659767
79.3 -69.9964021359
79.4 -69.9964379352
79.5 -69.9964733784
79.6 -69.9965084688
79.7 -69.9965432101
79.8 -69.9965776058
79.9 -69.9966116592
80.0 -69.9966453737
80.1 -69.9966787528
80.2 -69.9967117998
80.3 -69.9967445179
80.4 -69.9967769105
80.5 -69.9968089808
80.6 -69.9968407319
80.7 -69.9968721672
80.8 -69.9969032896
80.9 -69.9969341024
81.0 -69.9969646086
81.1 -69.9969948113
81.2 -69.9970247134
81.3 -69.997054318
81.4 -69.997083628
81.5 -69.9971126464
81.6 -69.9971413761
81.7 -69.9971698198
81.8 -69.9971979806
81.9 -69.9972258612
82.0 -69.9972534643
82.1 -69.9972807928
82.2 -69.9973078494
82.3 -69.9973346367
82.4 -69.9973611575
82.5 -69.9973874144
82.6 -69.9974134101
82.7 -69.9974391471
82.8 -69.997464628
82.9 -69.9974898554
83.0 -69.9975148317
83.1 -69.9975395596
83.2 -69.9975640414
83.3 -69.9975882796
83.4 -69.9976122766
83.5 -69.9976360348
83.6 -69.9976595567
83.7 -69.9976828445
83.8 -69.9977059005
83.9 -69.9977287272
84.0 -69.9977513268
84.1 -69.9977737014
84.2 -69.9977958535
84.3 -69.9978177851
84.4 -69.9978394985
84.5 -69.9978609958
84.6 -69.9978822793
84.7 -69.997903351
84.8 -69.997924213
84.9 -69.9979448674
85.0 -69.9979653163
85.1 -69.9979855618
85.2 -69.9980056057
85.3 -69.9980254503
85.4 -69.9980450974
85.5 -69.998064549
85.6 -69.9980838071
85.7 -69.9981028735
85.8 -69.9981217502
85.9 -69.9981404391
86.0 -69.9981589421
86.1 -69.9981772609
86.2 -69.9981953975
86.3 -69.9982133535
86.4 -69.998231131
86.5 -69.9982487315
86.6 -69.9982661569
86.7 -69.998283409
86.8 -69.9983004893
86.9 -69.9983173997
87.0 -69.9983341419
87.1 -69.9983507175
87.2 -69.9983671281
87.3 -69.9983833754
87.4 -69.9983994611
87.5 -69.9984153867
87.6 -69.9984311539
87.7 -69.9984467642
87.8 -69.9984622191
87.9 -69.9984775203
88.0 -69.9984926692
88.1 -69.9985076674
88.2 -69.9985225164
88.3 -69.9985372176
88.4 -69.9985517725
88.5 -69.9985661826
88.6 -69.9985804494
88.7 -69.9985945741
88.8 -69.9986085583
88.9 -69.9986224034
89.0 -69.9986361107
89.1 -69.9986496817
89.2 -69.9986631176
89.3 -69.9986764198
89.4 -69.9986895896
89.5 -69.9987026284
89.6 -69.9987155375
89.7 -69.9987283181
89.8 -69.9987409715
89.9 -69.9987534991
90.0 -69.998765902
90.1 -69.9987781814
90.2 -69.9987903387
90.3 -69.9988023751
90.4 -69.9988142916
90.5 -69.9988260896
90.6 -69.9988377702
90.7 -69.9988493346
90.8 -69.9988607839
90.9 -69.9988721193
91.0 -69.9988833419
91.1 -69.9988944528
91.2 -69.9989054532
91.3 -69.9989163441
91.4 -69.9989271267
91.5 -69.998937802
91.6 -69.998948371
91.7 -69.9989588349
91.8 -69.9989691947
91.9 -69.9989794514
92.0 -69.998989606
92.1 -69.9989996596
92.2 -69.9990096131
92.3 -69.9990194676
92.4 -69.9990292241
92.5 -69.9990388835
92.6 -69.9990484467
92.7 -69.9990579149
92.8 -69.9990672888
92.9 -69.9990765694
93.0 -69.9990857577
93.1 -69.9990948545
93.2 -69.9991038609
93.3 -69.9991127776
93.4 -69.9991216056
93.5 -69.9991303458
93.6 -69.999138999
93.7 -69.9991475661
93.8 -69.999156048
93.9 -69.9991644454
94.0 -69.9991727593
94.1 -69.9991809905
94.2 -69.9991891398
94.3 -69.999197208
94.4 -69.9992051959
94.5 -69.9992131043
94.6 -69.9992209341
94.7 -69.9992286859
94.8 -69.9992363606
94.9 -69.999243959
95.0 -69.9992514817
95.1 -69.9992589296
95.2 -69.9992663034
95.3 -69.9992736038
95.4 -69.9992808315
95.5 -69.9992879874
95.6 -69.999295072
95.7 -69.9993020862
95.8 -69.9993090305
95.9 -69.9993159058
96.0 -69.9993227126
96.1 -69.9993294518
96.2 -69.9993361238
96.3 -69.9993427295
96.4 -69.9993492695
96.5 -69.9993557443
96.6 -69.9993621548
96.7 -69.9993685014
96.8 -69.999374785
96.9 -69.999381006
97.0 -69.999387165
97.1 -69.9993932629
97.2 -69.9993993
97.3 -69.9994052771
97.4 -69.9994111947
97.5 -69.9994170534
97.6 -69.9994228538
97.7 -69.9994285965
97.8 -69.999434282
97.9 -69.999439911
98.0 -69.999445484
98.1 -69.9994510015
98.2 -69.9994564642
98.3 -69.9994618724
98.4 -69.9994672269
98.5 -69.9994725281
98.6 -69.9994777765
98.7 -69.9994829727
98.8 -69.9994881172
98.9 -69.9994932105
99.0 -69.9994982532
99.1 -69.9995032456
99.2 -69.9995081884
99.3 -69.999513082
99.4 -69.999517927
99.5 -69.9995227237
99.6 -69.9995274726
99.7 -69.9995321744
99.8 -69.9995368293
99.9 -69.9995414379
100.0 -69.9995460007
100.1 -69.9995505181
100.2 -69.9995549905
100.3 -69.9995594184
100.4 -69.9995638023
100.5 -69.9995681425
100.6 -69.9995724396
100.7 -69.9995766939
100.8 -69.9995809058
