Name: STN[Glu], Title: Membrane potential
0.1 -60.0995016625
0.2 -60.1980132669
0.3 -60.2955446645
0.4 -60.3921056085
0.5 -60.487705755
0.6 -60.5823546642
0.7 -60.6760618009
0.8 -60.7688365361
0.9 -60.8606881473
1.0 -60.9516258196
1.1 -61.041658647
1.2 -61.1307956328
1.3 -61.2190456908
1.4 -61.306417646
1.5 -61.3929202357
1.6 -61.4785621103
1.7 -61.563351834
1.8 -61.6472978859
1.9 -61.7304086606
2.0 -61.8126924692
2.1 -61.8941575403
2.2 -61.9748120204
2.3 -62.054663975
2.4 -62.1337213893
2.5 -62.2119921693
2.6 -62.289484142
2.7 -62.3662050566
2.8 -62.4421625854
2.9 -62.5173643242
3.0 -62.5918177932
3.1 -62.6655304378
3.2 -62.7385096293
3.3 -62.8107626657
3.4 -62.8822967724
3.5 -62.9531191028
3.6 -63.0232367393
3.7 -63.0926566936
3.8 -63.1613859079
3.9 -63.229431255
4.0 -63.2967995396
4.1 -63.3634974986
4.2 -63.4295318018
4.3 -63.4949090528
4.4 -63.5596357892
4.5 -63.6237184838
4.6 -63.6871635449
4.7 -63.7499773172
4.8 -63.8121660819
4.9 -63.8737360582
5.0 -63.9346934029
5.1 -63.9950442119
5.2 -64.0547945203
5.3 -64.1139503032
5.4 -64.1725174763
5.5 -64.2305018962
5.6 -64.2879093615
5.7 -64.344745613
5.8 -64.4010163343
5.9 -64.4567271527
6.0 -64.5118836391
6.1 -64.5664913093
6.2 -64.6205556241
6.3 -64.6740819899
6.4 -64.7270757596
6.5 -64.7795422324
6.6 -64.8314866551
6.7 -64.8829142221
6.8 -64.9338300763
6.9 -64.9842393093
7.0 -65.0341469621
7.1 -65.0835580254
7.2 -65.1324774404
7.3 -65.1809100991
7.4 -65.2288608448
7.5 -65.2763344726
7.6 -65.3233357299
7.7 -65.3698693169
7.8 -65.4159398869
7.9 -65.4615520472
8.0 -65.5067103588
8.1 -65.5514193378
8.2 -65.5956834549
8.3 -65.6395071368
8.4 -65.6828947657
8.5 -65.7258506805
8.6 -65.7683791768
8.7 -65.8104845075
8.8 -65.8521708832
8.9 -65.8934424725
9.0 -65.9343034026
9.1 -65.9747577597
9.2 -66.0148095892
9.3 -66.0544628963
9.4 -66.0937216464
9.5 -66.1325897655
9.6 -66.1710711402
9.7 -66.209169619
9.8 -66.2468890115
9.9 -66.2842330898
10.0 -66.3212055883
10.1 -66.3578102043
10.2 -66.3940505983
10.3 -66.4299303943
10.4 -66.4654531804
10.5 -66.5006225089
10.6 -66.5354418967
10.7 -66.5699148258
10.8 -66.6040447436
10.9 -66.6378350629
11.0 -66.671289163
11.1 -66.7044103892
11.2 -66.7372020538
11.3 -66.7696674358
11.4 -66.8018097818
11.5 -66.8336323062
11.6 -66.8651381912
11.7 -66.8963305873
11.8 -66.927212614
11.9 -66.9577873593
12.0 -66.9880578809
12.1 -67.0180272057
12.2 -67.0476983308
12.3 -67.0770742232
12.4 -67.1061578206
12.5 -67.1349520314
12.6 -67.163459735
12.7 -67.1916837822
12.8 -67.2196269955
12.9 -67.2472921691
13.0 -67.2746820697
13.1 -67.3017994362
13.2 -66.6185435161
13.3 -66.0096613851
13.4 -63.3376719808
13.5 -60.2402176476
13.6 -56.0544467718
13.7 -50.8976882245
13.8 -67.0
13.9 -67.0
14.0 -67.0
14.1 -67.0
14.2 -67.0
14.3 -67.0
14.4 -67.0
14.5 -67.0
14.6 -67.0
14.7 -67.0
14.8 -67.0
14.9 -67.0
15.0 -67.0
15.1 -67.0
15.2 -67.0
15.3 -67.0
15.4 -67.0
15.5 -67.0
15.6 -67.0
15.7 -67.0
15.8 -67.0
15.9 -67.0
16.0 -67.0
16.1 -67.0
16.2 -67.0
16.3 -67.0
16.4 -67.0
16.5 -67.0
16.6 -67.0
16.7 -67.0
16.8 -67.0
16.9 -67.0
17.0 -67.0
17.1 -67.0
17.2 -67.0
17.3 -67.0
17.4 -67.0
17.5 -67.0
17.6 -67.0
17.7 -67.0
17.8 -67.0
17.9 -67.0
18.0 -67.0
18.1 -67.0
18.2 -67.0
18.3 -67.0
18.4 -67.0
18.5 -67.0
18.6 -67.0
18.7 -67.0
18.8 -67.0
18.9 -67.0
19.0 -67.0
19.1 -67.0
19.2 -67.0
19.3 -67.0
19.4 -67.0
19.5 -67.0
19.6 -67.0
19.7 -67.0
19.8 -67.0
19.9 -67.0
20.0 -67.0
20.1 -60.3173098997
20.2 -54.3398963718
20.3 -67.0
20.4 -67.0
20.5 -67.0
20.6 -67.0
20.7 -67.0
20.8 -67.0
20.9 -67.0
21.0 -67.0
21.1 -67.0
21.2 -67.0
21.3 -67.0
21.4 -67.0
21.5 -67.0
21.6 -67.0
21.7 -67.0
21.8 -67.0
21.9 -67.0
22.0 -67.0
22.1 -67.0
22.2 -67.0
22.3 -67.0
22.4 -66.3568589398
22.5 -65.7841608545
22.6 -65.2751102691
22.7 -64.8235592982
22.8 -64.4239460111
22.9 -64.0712386611
23.0 -63.7608852235
23.1 -63.4887677351
23.2 -63.2511609786
23.3 -63.0446950997
23.4 -62.8663217812
23.5 -62.7132836359
23.6 -62.583086513
23.7 -62.473474439
23.8 -62.3824069444
23.9 -62.3080385475
24.0 -62.2487001903
24.1 -62.2028824424
24.2 -62.169220302
24.3 -62.1464794436
24.4 -62.1335437756
24.5 -62.1294041802
24.6 -62.1331483269
24.7 -62.1439514534
24.8 -62.1610680257
24.9 -62.1838241909
25.0 -62.2116109484
25.1 -62.2438779715
25.2 -62.2801280163
25.3 -62.3199118633
25.4 -62.3628237404
25.5 -62.4084971809
25.6 -62.4566012768
25.7 -62.5068372879
25.8 -62.5589355737
25.9 -62.6126528176
26.0 -62.6677695157
26.1 -62.7240877034
26.2 -62.7814288997
26.3 -62.8396322467
26.4 -62.8985528259
26.5 -62.9580601353
26.6 -63.018036711
26.7 -63.0783768808
26.8 -63.1389856355
26.9 -63.1997776082
27.0 -63.2606761509
27.1 -63.3216124989
27.2 -63.3825250145
27.3 -63.4433585032
27.4 -63.5040635947
27.5 -63.5645961829
27.6 -63.6249169195
27.7 -63.6849907555
27.8 -63.7447865265
27.9 -63.8042765778
28.0 -63.8634364248
28.1 -63.9222444461
28.2 -63.9806816055
28.3 -64.038731201
28.4 -64.0963786373
28.5 -64.1536112203
28.6 -64.210417971
28.7 -64.2667894571
28.8 -64.3227176411
28.9 -64.3781957425
29.0 -64.4332181133
29.1 -64.4877801252
29.2 -64.5418780681
29.3 -64.5955090577
29.4 -64.6486709522
29.5 -64.7013622772
29.6 -64.7535821575
29.7 -64.8053302554
29.8 -64.856606715
29.9 -64.9074121122
30.0 -64.9577474087
30.1 -65.0076139114
30.2 -65.0570132348
30.3 -65.1059472676
30.4 -65.1544181424
30.5 -65.2024282082
30.6 -65.2499800056
30.7 -65.2970762445
30.8 -65.343719784
30.9 -65.3899136137
31.0 -65.435660838
31.1 -65.4809646607
31.2 -65.5258283715
31.3 -65.5702553345
31.4 -65.6142489766
31.5 -65.6578127783
31.6 -65.7009502643
31.7 -65.7436649962
31.8 -65.7859605645
31.9 -65.8278405828
32.0 -65.8693086818
32.1 -65.9103685038
32.2 -65.9510236987
32.3 -65.9912779189
32.4 -66.0311348163
32.5 -66.0705980385
32.6 -66.109671226
32.7 -66.1483580092
32.8 -66.1866620066
32.9 -66.2245868218
33.0 -66.2621360423
33.1 -66.2993132376
33.2 -66.3361219574
33.3 -66.3725657308
33.4 -66.4086480648
33.5 -66.4443724431
33.6 -66.4797423258
33.7 -66.514761148
33.8 -66.5494323196
33.9 -66.5837592242
34.0 -66.6177452192
34.1 -66.6513936349
34.2 -66.6847077744
34.3 -66.7176909133
34.4 -66.7503462994
34.5 -66.7826771525
34.6 -66.8146866643
34.7 -66.8463779982
34.8 -66.8777542897
34.9 -66.9088186455
35.0 -66.9395741446
35.1 -66.9700238373
35.2 -67.0001707459
35.3 -67.0300178645
35.4 -67.0595681593
35.5 -67.0888245686
35.6 -67.1177900026
35.7 -67.1464673444
35.8 -67.174859449
35.9 -67.2029691445
36.0 -67.2307992317
36.1 -67.2583524843
36.2 -67.2856316494
36.3 -67.3126394473
36.4 -67.339378572
36.5 -67.3658516911
36.6 -67.3920614466
36.7 -67.4180104542
36.8 -67.4437013043
36.9 -67.4691365619
37.0 -67.4943187667
37.1 -67.5192504337
37.2 -67.5439340528
37.3 -67.5683720898
37.4 -67.5925669859
37.5 -67.6165211584
37.6 -67.6402370005
37.7 -67.6637168822
37.8 -67.6869631496
37.9 -67.709978126
38.0 -67.7327641113
38.1 -67.7553233831
38.2 -67.7776581961
38.3 -67.7997707829
38.4 -67.8216633536
38.5 -67.8433380969
38.6 -67.8647971794
38.7 -67.8860427463
38.8 -67.9070769217
38.9 -67.9279018083
39.0 -67.9485194882
39.1 -67.9689320228
39.2 -67.9891414528
39.3 -68.0091497988
39.4 -68.0289590615
39.5 -68.0485712213
39.6 -68.0679882392
39.7 -68.0872120568
39.8 -68.1062445962
39.9 -68.1250877604
40.0 -68.1437434336
40.1 -68.1622134812
40.2 -68.1804997501
40.3 -68.1986040687
40.4 -68.2165282475
40.5 -68.2342740786
40.6 -68.2518433367
40.7 -68.2692377786
40.8 -68.2864591435
40.9 -68.3035091537
41.0 -68.3203895141
41.1 -68.3371019125
41.2 -68.3536480204
41.3 -68.3700294921
41.4 -68.3862479659
41.5 -68.4023050635
41.6 -68.4182023906
41.7 -68.433941537
41.8 -68.4495240766
41.9 -68.4649515675
42.0 -68.4802255525
42.1 -68.4953475591
42.2 -68.5103190993
42.3 -68.5251416704
42.4 -68.5398167546
42.5 -68.5543458194
42.6 -68.5687303177
42.7 -68.5829716879
42.8 -68.5970713543
42.9 -68.6110307267
43.0 -68.6248512011
43.1 -68.6385341596
43.2 -68.6520809705
43.3 -68.6654929883
43.4 -68.6787715544
43.5 -68.6919179967
43.6 -68.7049336297
43.7 -68.717819755
43.8 -68.7305776612
43.9 -68.7432086242
44.0 -68.7557139071
44.1 -68.7680947603
44.2 -68.780352422
44.3 -68.792488118
44.4 -68.8045030618
44.5 -68.8163984549
44.6 -68.8281754869
44.7 -68.8398353355
44.8 -68.8513791666
44.9 -68.8628081348
45.0 -68.8741233828
45.1 -68.8853260422
45.2 -68.8964172333
45.3 -68.9073980653
45.4 -68.9182696361
45.5 -68.929033033
45.6 -68.9396893323
45.7 -68.9502395997
45.8 -68.9606848901
45.9 -68.9710262482
46.0 -68.9812647081
46.1 -68.9914012936
46.2 -69.0014370183
46.3 -69.011372886
46.4 -69.0212098901
46.5 -69.0309490144
46.6 -69.0405912328
46.7 -69.0501375095
46.8 -69.0595887992
46.9 -69.068946047
47.0 -69.0782101886
47.1 -69.0873821504
47.2 -69.0964628497
47.3 -69.1054531946
47.4 -69.114354084
47.5 -69.1231664081
47.6 -69.1318910481
47.7 -69.1405288765
47.8 -69.1490807571
47.9 -69.157547545
48.0 -69.165930087
48.1 -69.1742292213
48.2 -69.1824457778
48.3 -69.1905805782
48.4 -69.198634436
48.5 -69.2066081566
48.6 -69.2145025374
48.7 -69.2223183677
48.8 -69.2300564292
48.9 -69.2377174958
49.0 -69.2453023334
49.1 -69.2528117007
49.2 -69.2602463485
49.3 -69.2676070203
49.4 -69.2748944522
49.5 -69.2821093729
49.6 -69.289252504
49.7 -69.2963245598
49.8 -69.3033262474
49.9 -69.310258267
50.0 -69.317121312
50.1 -69.3239160684
50.2 -69.3306432159
50.3 -69.3373034272
50.4 -69.3438973683
50.5 -69.3504256986
50.6 -69.3568890709
50.7 -69.3632881315
50.8 -69.3696235205
50.9 -69.3758958712
51.0 -69.3821058111
51.1 -69.388253961
51.2 -69.3943409358
51.3 -69.4003673441
51.4 -69.4063337888
51.5 -69.4122408663
51.6 -69.4180891674
51.7 -69.4238792769
51.8 -69.4296117739
51.9 -69.4352872315
52.0 -69.4409062175
52.1 -69.4464692936
52.2 -69.4519770161
52.3 -69.4574299359
52.4 -69.4628285982
52.5 -69.468173543
52.6 -69.4734653047
52.7 -69.4787044124
52.8 -69.4838913902
52.9 -69.4890267567
53.0 -69.4941110254
53.1 -69.4991447048
53.2 -69.5041282982
53.3 -69.5090623041
53.4 -69.5139472158
53.5 -69.5187835218
53.6 -69.5235717058
53.7 -69.5283122465
53.8 -69.5330056181
53.9 -69.5376522898
54.0 -69.5422527264
54.1 -69.5468073879
54.2 -69.5513167297
54.3 -69.5557812028
54.4 -69.5602012537
54.5 -69.5645773244
54.6 -69.5689098524
54.7 -69.573199271
54.8 -69.5774460092
54.9 -69.5816504917
55.0 -69.5858131388
55.1 -69.589934367
55.2 -69.5940145882
55.3 -69.5980542105
55.4 -69.602053638
55.5 -69.6060132704
55.6 -69.6099335039
55.7 -69.6138147304
55.8 -69.617657338
55.9 -69.621461711
56.0 -69.62522823
56.1 -69.6289572714
56.2 -69.6326492082
56.3 -69.6363044097
56.4 -69.6399232412
56.5 -69.6435060649
56.6 -69.6470532388
56.7 -69.6505651177
56.8 -69.6540420529
56.9 -69.657484392
57.0 -69.6608924792
57.1 -69.6642666554
57.2 -69.667607258
57.3 -69.6709146211
57.4 -69.6741890753
57.5 -69.6774309482
57.6 -69.6806405639
57.7 -69.6838182434
57.8 -69.6869643044
57.9 -69.6900790616
58.0 -69.6931628265
58.1 -69.6962159074
58.2 -69.6992386096
58.3 -69.7022312354
58.4 -69.7051940841
58.5 -69.708127452
58.6 -69.7110316324
58.7 -69.7139069157
58.8 -69.7167535894
58.9 -69.7195719383
59.0 -69.7223622442
59.1 -69.725124786
59.2 -69.7278598401
59.3 -69.7305676799
59.4 -69.7332485763
59.5 -69.7359027973
59.6 -69.6005107642
59.7 -69.4796002291
59.8 -69.3717772024
59.9 -69.2757805083
60.0 -69.1904691443
60.1 -69.1148108438
60.2 -69.0478717266
60.3 -68.9888069349
60.4 -68.9368521604
60.5 -68.8913159771
60.6 -68.5258712176
60.7 -68.1344452416
60.8 -67.7855589539
60.9 -67.4751115258
61.0 -67.1993928977
61.1 -66.9550465876
61.2 -66.7390360384
61.3 -66.5486141678
61.4 -66.3812958164
61.5 -66.234832817
61.6 -66.1071914374
61.7 -65.9965319686
61.8 -65.901190257
61.9 -65.8196609926
62.0 -65.7505825886
62.1 -65.6927234996
62.2 -65.6449698416
62.3 -65.6063141911
62.4 -65.5758454484
62.5 -65.5527396676
62.6 -65.536251758
62.7 -65.5257079753
62.8 -65.5204991282
62.9 -65.3478115474
63.0 -65.1975171983
63.1 -65.0674257818
63.2 -64.7456862563
63.3 -64.4240874282
63.4 -64.1412679599
63.5 -63.8934561627
63.6 -63.6772400814
63.7 -63.4895332522
63.8 -63.3275437209
63.9 -63.1887460079
64.0 -63.0708557429
64.1 -62.9718067117
64.2 -62.8897300888
64.3 -62.8229356457
64.4 -62.520167656
64.5 -62.2560202857
64.6 -62.0267207014
64.7 -61.3165579724
64.8 -60.4649803745
64.9 -59.7111366463
65.0 -58.7543474322
65.1 -57.9078713169
65.2 -57.1610189553
65.3 -56.5041201353
65.4 -55.8318605279
65.5 -55.2430430015
65.6 -54.7295332812
65.7 -54.283973098
65.8 -53.8997063234
65.9 -53.5707121322
66.0 -53.2915445272
66.1 -53.0572776181
66.2 -52.8634561087
66.3 -52.7060504953
66.4 -52.5814165293
66.5 -52.4862585377
66.6 -51.3938334784
66.7 -50.2794559324
66.8 -67.0
66.9 -67.0
67.0 -67.0
67.1 -67.0
67.2 -67.0
67.3 -67.0
67.4 -67.0
67.5 -67.0
67.6 -67.0
67.7 -67.0
67.8 -67.0
67.9 -67.0
68.0 -67.0
68.1 -67.0
68.2 -67.0
68.3 -67.0
68.4 -67.0
68.5 -67.0
68.6 -67.0
68.7 -67.0
68.8 -67.0
68.9 -63.9845300845
69.0 -61.2888651495
69.1 -58.8822449134
69.2 -56.7368395742
69.3 -54.8274709051
69.4 -53.1313598922
69.5 -51.51930375
69.6 -50.0926678963
69.7 -67.0
69.8 -67.0
69.9 -67.0
70.0 -67.0
70.1 -67.0
70.2 -67.0
70.3 -67.0
70.4 -67.0
70.5 -67.0
70.6 -67.0
70.7 -67.0
70.8 -67.0
70.9 -67.0
71.0 -67.0
71.1 -67.0
71.2 -67.0
71.3 -67.0
71.4 -67.0
71.5 -67.0
71.6 -67.0
71.7 -67.0
71.8 -66.1863354018
71.9 -65.4610379761
72.0 -64.8155896522
72.1 -64.2422840438
72.2 -63.7341491962
72.3 -63.2848776851
72.4 -62.8887633681
72.5 -62.5406441541
72.6 -62.2358502201
72.7 -61.9701571553
72.8 -61.739743564
72.9 -61.5411527044
73.0 -61.3712577764
73.1 -61.2272305142
73.2 -61.1065127671
73.3 -61.006790785
73.4 -60.9259719508
73.5 -60.862163728
73.6 -60.8136546103
73.7 -60.7788968858
73.8 -60.7564910403
73.9 -60.7451716452
74.0 -60.7437945891
74.1 -60.7513255235
74.2 -60.766829409
74.3 -60.7894610558
74.4 -60.818456565
74.5 -60.853125584
74.6 -60.8928442993
74.7 -60.9370490958
74.8 -60.9852308202
74.9 -61.0369295899
75.0 -61.0917300962
75.1 -61.1492573542
75.2 -61.2091728579
75.3 -61.2711711006
75.4 -61.334976427
75.5 -61.4003401843
75.6 -61.4670381453
75.7 -61.5348681765
75.8 -61.6036481276
75.9 -61.6732139227
76.0 -61.7434178331
76.1 -61.8141269139
76.2 -61.8852215905
76.3 -61.9565943784
76.4 -62.0281487264
76.5 -62.0997979684
76.6 -62.1714643761
76.7 -62.2430783018
76.8 -62.3145774023
76.9 -62.3859059371
77.0 -62.4570141335
77.1 -62.5278576121
77.2 -62.5983968669
77.3 -62.6685967952
77.4 -62.738426272
77.5 -62.8078577655
77.6 -62.8768669883
77.7 -62.9454325829
77.8 -63.0135358367
77.9 -63.0811604238
78.0 -63.1482921725
78.1 -63.2149188537
78.2 -63.2810299904
78.3 -63.3466166854
78.4 -63.4116714645
78.5 -63.476188136
78.6 -63.5401616625
78.7 -63.6035880457
78.8 -63.6664642218
78.9 -63.7287879673
79.0 -63.7905578132
79.1 -63.8517729682
79.2 -63.9124332484
79.3 -63.9725390146
79.4 -64.0320911151
79.5 -64.0910908341
79.6 -64.149539845
79.7 -64.2074401685
79.8 -64.264794134
79.9 -64.321604346
80.0 -64.3778736524
80.1 -64.4336051165
80.2 -64.488801992
80.3 -64.5434676998
80.4 -64.5976058074
80.5 -64.6512200101
80.6 -64.7043141146
80.7 -64.7568920234
80.8 -64.8089577214
80.9 -64.8605152633
81.0 -64.9115687627
81.1 -64.9621223817
81.2 -65.0121803226
81.3 -65.0617468189
81.4 -65.1108261289
81.5 -65.1594225281
81.6 -65.2075403045
81.7 -65.2551837521
81.8 -65.3023571671
81.9 -65.349064843
82.0 -65.3953110673
82.1 -65.4411001177
82.2 -65.4864362592
82.3 -65.5313237414
82.4 -65.5757667961
82.5 -65.619769635
82.6 -65.663336448
82.7 -65.7064714016
82.8 -65.7491786368
82.9 -65.7914622686
83.0 -65.8333263843
83.1 -65.8747750427
83.2 -65.9158122733
83.3 -65.9564420753
83.4 -65.9966684172
83.5 -66.036495236
83.6 -66.0759264371
83.7 -66.1149658937
83.8 -66.1536174462
83.9 -66.1918849025
84.0 -66.2297720376
84.1 -66.2672825931
84.2 -66.3044202778
84.3 -66.341188767
84.4 -66.3775917027
84.5 -66.4136326938
84.6 -66.449315316
84.7 -66.4846431117
84.8 -66.5196195906
84.9 -66.5542482291
85.0 -66.588532471
85.1 -66.6224757277
85.2 -66.6560813776
85.3 -66.6893527674
85.4 -66.7222932114
85.5 -66.7549059921
85.6 -66.7871943603
85.7 -66.8191615353
85.8 -66.8508107055
85.9 -66.8821450278
86.0 -66.9131676289
86.1 -66.9438816046
86.2 -66.9742900205
86.3 -66.9232113797
86.4 -66.8803667501
86.5 -66.8449389977
86.6 -66.816189083
86.7 -66.793448626
86.8 -66.7761131791
86.9 -66.7636361392
87.0 -66.7555232406
87.1 -66.7513275706
87.2 -66.7506450606
87.3 -66.7531104054
87.4 -66.7583933717
87.5 -66.7661954571
87.6 -66.7762468677
87.7 -66.7883037831
87.8 -66.8021458817
87.9 -66.8175741015
88.0 -66.834408614
88.1 -66.8524869912
88.2 -66.8716625469
88.3 -66.8918028353
88.4 -66.9127882938
88.5 -66.9345110138
88.6 -66.9568736288
88.7 -66.9797883089
88.8 -67.0031758502
88.9 -67.0269648513
89.0 -67.0510909686
89.1 -67.0754962413
89.2 -67.0349145436
89.3 -67.0013676641
89.4 -66.9741545798
89.5 -66.9526412931
89.6 -66.9362544502
89.7 -66.9244755672
89.8 -66.916835805
89.9 -66.9129112426
90.0 -66.9123185991
90.1 -66.9147113634
90.2 -66.9197762923
90.3 -66.9272302415
90.4 -66.9368172987
90.5 -66.948306189
90.6 -66.9614879276
90.7 -66.976173696
90.8 -66.99219292
90.9 -67.0093915305
91.0 -67.0276303907
91.1 -67.0467838721
91.2 -67.0667385662
91.3 -67.0873921192
91.4 -67.1086521774
91.5 -67.1304354328
91.6 -67.1296025748
91.7 -67.1315744042
91.8 -67.1360569012
91.9 -67.1427842955
92.0 -67.1515163754
92.1 -67.1620360529
92.2 -67.1741471603
92.3 -67.1876724571
92.4 -67.2024518264
92.5 -67.218340642
92.6 -67.2352082929
92.7 -67.252936846
92.8 -67.2714198378
92.9 -67.2905611804
93.0 -67.3102741714
93.1 -67.3304805987
93.2 -67.3511099299
93.3 -67.3720985793
93.4 -67.3933892445
93.5 -67.4149303058
93.6 -67.4366752837
93.7 -67.4585823471
93.8 -67.4806138688
93.9 -67.5027360232
94.0 -67.5249184223
94.1 -67.5471337865
94.2 -67.5693576467
94.3 -67.5915680745
94.4 -67.6137454383
94.5 -67.6358721829
94.6 -67.6579326297
94.7 -67.679912796
94.8 -67.7018002315
94.9 -67.7235838709
95.0 -67.7452538995
95.1 -67.7668016328
95.2 -67.7882194065
95.3 -67.8095004779
95.4 -67.8306389359
95.5 -67.8516296204
95.6 -67.8724680486
95.7 -67.8931503489
95.8 -67.9136732006
95.9 -67.9340337802
96.0 -67.9542297117
96.1 -67.9742590228
96.2 -67.994120104
96.3 -68.0138116732
96.4 -68.033332742
96.5 -68.0526825866
96.6 -68.0718607206
96.7 -67.9657846265
96.8 -67.8726842054
96.9 -67.7912959905
97.0 -67.7204770347
97.1 -67.6591934394
97.2 -67.606509974
97.3 -67.5391776246
97.4 -67.4811891197
97.5 -67.4316260581
97.6 -67.3896577266
97.7 -67.3545327527
97.8 -67.3255715514
97.9 -67.3021594908
98.0 -67.2837407085
98.1 -67.2698125157
98.2 -67.2599203347
98.3 -67.2536531175
98.4 -67.250639201
98.5 -67.2505425561
98.6 -67.2530593942
98.7 -67.2579150965
98.8 -67.2648614354
98.9 -67.2736740604
99.0 -67.2841502238
99.1 -67.296106722
99.2 -67.3093780332
99.3 -67.3238146323
99.4 -67.3392814664
99.5 -67.3556565749
99.6 -67.3728298412
99.7 -67.3907018635
99.8 -67.4091829325
99.9 -67.4083344418
100.0 -67.4100283402
100.1 -67.3560021594
100.2 -67.1043364038
100.3 -66.8816274854
100.4 -66.6850699695
100.5 -66.5121258899
100.6 -66.3604992903
100.7 -65.8127846978
100.8 -64.7497753648
100.9 -63.8024666693
101.0 -62.9597035454
101.1 -62.2113939116
101.2 -61.5484075005
101.3 -60.9624843159
101.4 -60.446151801
101.5 -59.9926498903
101.6 -59.5958631931
101.7 -59.1704122824
101.8 -58.7995331917
101.9 -58.4778925796
102.0 -58.2006660335
102.1 -57.963489625
102.2 -57.6659587474
102.3 -57.4110993313
102.4 -57.194707789
102.5 -56.9637975637
102.6 -56.7692840668
102.7 -56.6075601833
102.8 -56.4753634883
102.9 -56.3697434318
103.0 -56.2880316449
103.1 -56.0264358399
103.2 -55.8053207257
103.3 -55.6206789662
103.4 -55.4688861173
103.5 -54.6256469123
103.6 -53.0098277687
103.7 -51.5784095373
103.8 -50.198413937
103.9 -67.0
104.0 -67.0
104.1 -67.0
104.2 -67.0
104.3 -67.0
104.4 -67.0
104.5 -67.0
104.6 -67.0
104.7 -67.0
104.8 -67.0
104.9 -67.0
105.0 -67.0
105.1 -67.0
105.2 -67.0
105.3 -67.0
105.4 -67.0
105.5 -67.0
105.6 -67.0
105.7 -67.0
105.8 -67.0
105.9 -67.0
106.0 -64.5320251028
106.1 -61.9960513915
106.2 -59.7318183816
106.3 -57.7131639329
106.4 -55.9164185729
106.5 -54.1178333176
106.6 -52.4517187607
106.7 -50.9757726455
106.8 -67.0
106.9 -67.0
107.0 -67.0
107.1 -67.0
107.2 -67.0
107.3 -67.0
